-0.000272
0.031067
0.042209
-0.041936
-0.091475
0.013477
0.014796
-0.086998
-0.137386
-0.036168
0.020253
-0.041673
-0.019724
0.063343
-0.008118
0.028564
0.031012
0.027842
-0.077344
0.045596
-0.042584
-0.001759
-0.122458
0.000690
-0.000148
0.040249
0.000821
0.001053
0.070297
0.084454
0.017330
-0.048627
-0.005798
0.028136
0.082298
-0.018115
0.043880
0.026128
-0.039393
0.073064
0.078127
0.033596
-0.029144
-0.034378
0.160593
0.172863
0.104683
0.123091
0.065809
0.076029
-0.008996
0.052831
0.102381
0.062878
0.035087
0.036270
0.121304
0.115964
0.060190
0.070019
0.103552
0.007063
0.054925
0.109796
0.086984
0.056632
0.109446
0.006085
0.062579
0.007293
-0.016846
0.008776
0.015920
0.031087
-0.027592
0.052656
-0.052272
0.062737
0.062172
0.001400
0.059948
-0.044801
0.021187
0.031259
0.005009
0.020252
-0.062566
0.007555
0.049441
0.026899
-0.044394
0.020373
0.088474
-0.034301
-0.013128
-0.012674
-0.023854
-0.019316
-0.064815
0.025691
0.078394
0.076245
0.280355
0.213208
0.205309
0.238647
0.526869
0.628354
0.566509
0.820035
0.728325
0.824504
0.789106
0.814615
0.673031
0.569214
0.438447
0.490327
0.225334
0.198825
0.138805
0.065651
-0.013565
0.093012
0.075801
-0.044157
0.019388
0.001886
-0.038127
0.023377
0.037144
0.093902
0.058957
0.084546
0.071775
0.214046
0.104049
0.213530
0.156433
0.138857
0.174362
0.269416
0.139951
0.127969
0.364376
0.291265
0.326106
0.322335
0.465538
0.346764
0.365748
0.416404
0.359599
0.505528
0.380186
0.350163
0.366413
0.513598
0.388813
0.462057
0.404022
0.315619
0.419752
0.340483
0.409679
0.337781
0.277122
0.322944
0.383908
0.304724
0.305646
0.269585
0.353892
0.272301
0.283652
0.323340
0.300682
0.234153
0.274836
0.227500
0.268120
0.243010
0.214628
0.173616
0.218623
0.257879
0.307218
0.240872
0.276061
0.239020
0.258296
0.238032
0.133889
0.157483
0.114767
0.092283
0.131127
0.077047
0.098485
0.163941
0.127318
0.098022
0.139867
-0.033754
0.159770
0.017301
0.022362
0.045991
-0.033237
-0.056213
0.074599
-0.008180
0.098395
0.136939
0.011802
-0.109102
0.092387
-0.028330
-0.038611
0.006082
0.027062
0.035358
0.046063
0.062065
0.061384
-0.062791
0.008503
-0.050588
0.021164
-0.103965
-0.000445
0.044715
-0.055324
0.001871
-0.003181
0.080029
0.064984
0.000997
0.006700
-0.040374
-0.006381
0.043218
0.032165
0.048081
-0.070718
-0.082569
-0.015792
0.073684
-0.028385
-0.055438
-0.025247
0.021352
-0.001803
0.095210
-0.136118
0.003007
-0.025069
0.041011
0.021311
0.049726
0.012610
-0.122419
-0.083507
0.019124
-0.047911
0.050313
0.026444
-0.026672
-0.011971
0.012715
-0.083440
0.040823
-0.032821
-0.022855
-0.048345
-0.048867
-0.044176
0.001141
-0.048097
-0.011833
0.019802
0.001922
-0.046929
-0.024729
-0.078866
0.059386
0.041239
0.007709
0.099749
0.016137
-0.092748
-0.096011
0.072051
-0.039458
0.048375
-0.095069
-0.029189
-0.059574
0.058450
-0.021272
-0.049428
-0.011315
0.045301
0.004235
0.001310
-0.054392
0.048078
-0.065493
0.098231
0.059759
0.038188
-0.001932
-0.044951
0.009319
0.074420
0.077144
-0.006617
0.039394
-0.050825
0.070645
0.043995
0.180758
-0.007364
0.059671
-0.026084
0.038986
0.052058
0.117615
-0.036890
-0.031659
0.031993
0.097827
0.055656
0.100492
0.065918
-0.005334
0.100820
0.079213
0.125432
0.079337
0.096566
0.092618
0.082543
0.130631
0.059961
-0.042035
-0.047035
0.010716
0.092617
0.042468
0.034066
0.132429
-0.041962
0.062595
0.033627
-0.009707
0.014390
0.053933
0.008879
-0.010903
0.037767
-0.018094
-0.013173
-0.028217
-0.001627
0.003683
0.044219
-0.057362
-0.025376
-0.031211
-0.094064
0.000175
-0.003778
-0.089135
0.043821
-0.051911
-0.003557
0.015348
0.071121
0.015890
0.001498
0.132941
0.156726
0.288977
0.270173
0.315365
0.377726
0.530541
0.660149
0.671735
0.739991
0.844114
0.884965
0.682559
0.740016
0.546109
0.454422
0.380366
0.300156
0.232103
0.136917
0.010315
0.026858
0.053355
0.062432
0.080188
-0.065280
-0.060326
-0.041807
0.069329
0.108363
0.059178
0.137626
0.038937
0.107168
0.087376
0.029634
0.180421
0.114664
0.175844
0.207046
0.240137
0.244890
0.309516
0.335289
0.217547
0.339222
0.403037
0.423802
0.407284
0.359186
0.366405
0.465351
0.433858
0.405903
0.438916
0.380617
0.435307
0.382228
0.436322
0.405689
0.441787
0.315868
0.340789
0.440478
0.387403
0.290577
0.281486
0.419160
0.422406
0.275364
0.308792
0.304274
0.331685
0.302284
0.336531
0.222378
0.198696
0.239511
0.281740
0.283633
0.257028
0.308284
0.273979
0.251898
0.214433
0.313090
0.208245
0.146656
0.150220
0.257070
0.268061
0.161721
0.183396
0.191720
0.142936
0.104716
0.107947
0.065737
0.157473
-0.022295
0.094153
0.032827
0.083221
-0.034904
-0.004239
0.082522
0.147297
0.085217
0.044468
-0.028274
-0.035283
0.033508
-0.030126
-0.050158
0.057697
-0.067755
-0.069390
0.054009
0.015434
-0.058735
0.031228
0.018518
-0.069153
0.004317
0.029165
-0.060969
0.065725
-0.087286
0.071322
0.058379
0.003014
-0.018436
0.059899
0.042903
-0.070391
0.014406
0.001737
0.059935
0.018960
0.034593
0.014109
-0.011497
-0.000853
-0.103189
-0.035099
0.018487
-0.015122
0.012631
0.040587
-0.112183
-0.033511
0.015545
-0.010068
0.050187
-0.001335
-0.030512
-0.003420
0.030480
0.010462
-0.054798
-0.033386
0.069689
0.016666
-0.047574
0.006849
-0.028647
0.010873
0.008791
0.083702
-0.015948
0.018985
0.001029
-0.079467
-0.020525
0.044171
0.048407
-0.056834
0.020623
0.093455
-0.002062
-0.020851
0.055400
-0.000538
-0.042812
0.020576
0.054554
0.060516
0.063222
-0.012732
0.101206
-0.057604
0.020009
0.022681
-0.034712
-0.007201
-0.052409
-0.046388
0.029102
-0.098009
0.021818
-0.035402
-0.032229
-0.064728
0.030949
-0.007860
0.059046
-0.023437
-0.088564
-0.029122
0.022380
-0.059967
-0.002450
-0.092077
0.008157
-0.016378
0.030765
0.026935
0.094312
-0.025219
0.040346
-0.010961
-0.066959
0.050551
0.057773
-0.059760
0.141465
0.152398
-0.117357
0.074930
0.050731
0.133433
0.015001
0.052081
0.119672
0.085906
0.006766
0.188278
0.151110
0.064870
0.071314
0.102504
0.066830
0.014864
0.188362
0.003969
-0.011648
0.006877
0.041230
0.096365
0.032344
0.038203
-0.021399
-0.015305
-0.067782
0.062754
-0.089489
0.017904
-0.041461
-0.005774
0.048239
-0.062115
-0.019091
0.008519
0.049409
-0.062570
-0.049052
-0.033616
-0.053603
0.045560
0.008273
0.023762
-0.042145
-0.017209
-0.004842
0.013242
0.037462
0.139911
-0.007503
-0.015233
0.146097
0.046135
0.108379
0.236458
0.293442
0.275554
0.441960
0.521505
0.601093
0.777853
0.772947
0.820836
0.787202
0.724596
0.613200
0.621831
0.394231
0.405262
0.422661
0.146172
0.091450
0.052399
0.023552
0.072276
-0.009426
-0.000429
0.043312
0.009969
0.003272
0.082201
0.015539
0.087462
0.054567
0.019005
-0.030982
0.127439
0.133642
0.216286
0.198564
0.116793
0.158112
0.229586
0.227057
0.243651
0.215228
0.336435
0.326750
0.408486
0.437435
0.377790
0.426018
0.477394
0.415865
0.455678
0.414594
0.424803
0.395909
0.468061
0.364826
0.509767
0.275864
0.353442
0.375947
0.447971
0.392024
0.429962
0.368065
0.320399
0.298426
0.279875
0.395997
0.266600
0.298714
0.298704
0.346973
0.226049
0.285186
0.324964
0.321158
0.242768
0.350845
0.361941
0.239586
0.238902
0.179246
0.314298
0.241849
0.205224
0.179557
0.208004
0.198206
0.146806
0.201017
0.132774
0.060592
0.136694
0.136431
0.144768
0.132033
0.156836
0.134307
0.152468
0.107976
0.089026
0.033032
-0.008754
0.059581
0.029441
0.076976
0.060547
-0.022078
0.005308
0.078262
-0.064853
-0.019088
0.079850
0.021460
-0.027209
-0.025359
-0.054257
0.094030
0.068792
0.009836
-0.027262
-0.074479
-0.041630
0.063595
-0.022875
-0.053463
0.070573
-0.050482
0.082403
-0.047913
0.014764
0.054884
-0.014837
0.001861
-0.068187
-0.041831
-0.012693
0.076821
0.022736
0.003127
0.032672
-0.030743
-0.018446
-0.038196
0.071344
0.000045
0.028493
-0.009670
-0.002986
-0.043112
-0.012475
0.024389
-0.075957
-0.021152
0.109939
0.066368
-0.003684
-0.078082
0.000980
-0.038168
0.040526
-0.014446
-0.008178
-0.002833
-0.030316
-0.030875
0.001466
-0.034761
-0.022301
-0.071169
-0.026156
0.035419
-0.071336
0.030567
-0.003066
-0.052692
0.148629
-0.031899
-0.031842
0.010287
-0.033000
0.007529
-0.071529
-0.029641
-0.016229
-0.133361
0.082922
-0.022358
-0.010149
-0.004106
-0.085936
0.008938
0.008175
-0.038663
-0.080825
-0.001924
0.011410
0.083741
0.005762
-0.034033
-0.014264
0.022940
0.064729
0.042861
0.005095
-0.059991
0.049392
0.000514
0.015491
-0.011583
-0.084601
0.008080
-0.000720
-0.060932
0.065268
0.023238
-0.001339
-0.052345
-0.043450
-0.006713
0.071586
0.042681
0.116884
0.053955
0.097573
0.020271
0.084372
0.004301
0.142994
0.087664
0.088827
0.100642
0.120657
-0.028548
0.149723
0.158006
0.064884
0.020398
0.073771
0.053502
0.141086
0.039831
-0.031602
-0.009513
0.097069
0.022373
0.102897
0.107605
-0.034203
0.064409
0.040770
0.105542
0.011813
-0.028303
-0.037032
-0.011339
-0.004181
0.120197
-0.039887
0.037158
-0.003320
0.062500
-0.012930
-0.015963
-0.033440
0.060248
-0.029532
0.007831
0.032747
0.073622
0.014415
0.106318
0.010018
-0.000429
-0.034252
0.007706
-0.010867
0.128747
0.143033
0.192268
0.196700
0.259599
0.401140
0.406240
0.614447
0.718218
0.768603
0.660188
0.865772
0.838226
0.768259
0.751875
0.582001
0.561714
0.321461
0.256121
0.185311
0.111135
0.016560
0.028835
0.011666
0.026678
-0.032113
-0.030576
0.033307
-0.040659
0.033088
0.083741
0.098380
0.018535
0.056982
0.150186
0.116624
0.151274
0.176260
0.151826
0.158324
0.229751
0.235746
0.235019
0.212608
0.200074
0.359450
0.413930
0.305729
0.383741
0.358493
0.397712
0.465394
0.473393
0.477740
0.398253
0.435979
0.428328
0.411245
0.419630
0.459768
0.349630
0.379459
0.421988
0.443422
0.441549
0.337739
0.253470
0.397221
0.322822
0.282435
0.274104
0.218559
0.231193
0.274250
0.277247
0.419116
0.252625
0.224390
0.325009
0.246721
0.215177
0.253746
0.238632
0.336125
0.235382
0.291465
0.230527
0.259557
0.228580
0.233873
0.220634
0.231363
0.257324
0.232302
0.123451
0.004314
0.147057
0.092344
0.056482
0.149757
0.101414
0.060806
0.102300
0.038123
0.155886
0.063131
-0.055000
0.036161
0.008160
-0.046321
0.057288
0.027122
-0.015973
0.101351
0.017854
-0.016352
-0.050727
0.044001
0.012556
0.025532
0.079404
-0.029079
0.022029
0.010021
0.011865
0.042459
-0.092556
-0.048750
0.050116
-0.021402
0.075830
0.031487
-0.013251
0.020613
-0.026053
0.044658
0.110912
-0.088835
0.032081
0.113424
-0.041538
0.044725
-0.008926
0.055567
0.013707
-0.000801
0.007194
-0.060789
-0.007609
-0.078340
0.011270
-0.006613
-0.023109
-0.004803
-0.031808
0.060787
-0.068701
0.085193
0.093176
0.009804
-0.013827
-0.030688
-0.055525
-0.060332
0.030651
0.049081
-0.019577
-0.067001
-0.068763
-0.038232
-0.037398
-0.003206
-0.003786
0.094873
0.027739
0.058369
0.007886
-0.037530
0.039569
0.005378
-0.032022
-0.011056
0.024923
-0.035417
0.094015
0.009786
0.034018
0.044098
-0.005515
-0.010161
-0.075732
0.008959
-0.007228
0.033734
0.030472
-0.000465
0.007965
0.029034
-0.084270
0.083520
-0.019393
0.020765
0.012092
0.034876
0.045819
0.067526
0.052018
-0.048571
-0.024920
0.061981
-0.017805
0.019987
-0.024983
-0.113696
0.061641
0.135872
-0.036920
-0.073366
0.042763
0.052625
-0.013227
0.168771
0.030612
0.058374
-0.040798
0.079587
0.163712
0.106979
0.003631
0.084743
0.016962
0.087865
0.087055
0.151843
0.016385
0.015600
0.139990
0.112837
0.142991
0.057297
0.077033
0.046418
0.100729
0.042232
0.004800
-0.069552
0.041886
-0.001180
-0.011575
0.009902
-0.078867
0.081851
-0.054899
0.016960
0.031871
0.007638
0.011909
-0.022929
-0.005943
-0.036734
0.081683
-0.030582
0.021383
-0.067371
0.018872
0.082595
-0.016650
0.005932
0.105341
-0.132534
-0.046063
0.002033
-0.037408
0.054540
0.032788
0.021239
-0.042051
0.064691
0.018980
-0.005883
0.058794
0.041188
0.197333
0.147602
0.258437
0.242592
0.397914
0.538836
0.642379
0.678386
0.783579
0.860298
0.766913
0.783575
0.619460
0.629304
0.545790
0.423817
0.328535
0.204235
0.126055
0.082548
0.033662
0.104619
0.058371
0.049536
0.096699
-0.020669
-0.078004
0.041468
0.084454
0.068386
0.061523
-0.003518
0.039723
0.114646
0.117960
0.180693
0.145211
0.163877
0.310246
0.251399
0.247101
0.287246
0.221777
0.266094
0.370062
0.335197
0.302446
0.422297
0.363303
0.471376
0.446468
0.434574
0.432588
0.385310
0.391962
0.518922
0.409205
0.422940
0.429194
0.341408
0.409582
0.457197
0.255826
0.303532
0.328907
0.360280
0.296671
0.270010
0.313137
0.377628
0.254329
0.277901
0.262480
0.346480
0.213571
0.207465
0.225704
0.377016
0.290027
0.272549
0.299020
0.193573
0.277024
0.273236
0.243885
0.248875
0.193824
0.311432
0.280471
0.211619
0.246726
0.166795
0.145471
0.177051
0.077250
0.198265
0.224249
0.163266
0.108216
0.129180
0.109618
0.139358
0.035695
-0.032983
0.031723
0.076538
0.032124
0.057041
-0.055282
0.038057
-0.005429
-0.010451
0.022302
0.037362
0.051187
-0.036846
0.050342
0.140454
0.098262
0.001126
-0.047831
-0.027019
-0.000354
0.047949
0.004787
-0.021284
-0.047517
0.091751
0.022265
-0.069003
-0.038875
-0.005252
-0.081395
-0.032998
0.073979
0.054880
-0.031601
-0.013828
0.064138
0.010957
0.023216
0.012597
0.025585
-0.004348
0.099948
-0.037141
-0.008142
0.035819
0.023313
0.002111
0.076261
0.027009
-0.100502
0.027390
0.006950
0.007823
-0.050023
0.006191
-0.002531
-0.017287
0.006010
0.001604
0.082523
0.095790
-0.071046
0.058886
-0.020688
-0.007014
-0.022685
-0.065426
0.006977
-0.095661
-0.064210
-0.010471
-0.040564
-0.047977
-0.051068
-0.008198
