0.000000
0.018054
0.015536
-0.004685
-0.019568
-0.012153
0.009110
0.019992
0.008094
-0.013027
-0.019304
-0.003584
0.016220
0.017542
-0.001124
-0.018507
-0.014799
0.005778
0.019780
0.011256
-0.010071
-0.019887
-0.006987
0.013960
0.019130
0.002697
-0.016519
-0.016487
0.002946
0.019898
0.015413
-0.004916
-0.017279
-0.006744
0.015776
0.026012
0.014048
-0.004322
-0.005528
0.014967
0.037551
0.040839
0.026065
0.015666
0.027688
0.055161
0.073946
0.070119
0.055679
0.054690
0.075663
0.101637
0.109292
0.095314
0.079984
0.083913
0.104440
0.118599
0.109270
0.084725
0.069290
0.075757
0.090977
0.091040
0.068732
0.041974
0.033610
0.045576
0.056864
0.047607
0.021828
0.002938
0.007105
0.024855
0.031858
0.016630
-0.006424
-0.013474
0.001524
0.019882
0.019415
-0.000331
-0.017615
-0.013317
0.007237
0.020314
0.010791
-0.010626
-0.019610
-0.005931
0.014903
0.019353
0.002729
-0.015366
-0.013221
0.008496
0.027893
0.027430
0.014865
0.015815
0.046480
0.097575
0.147607
0.189960
0.242329
0.327018
0.443834
0.565988
0.663621
0.728683
0.773928
0.808707
0.820825
0.786540
0.698152
0.577742
0.460561
0.365504
0.284503
0.201234
0.116592
0.051358
0.023159
0.024647
0.028699
0.015660
-0.007694
-0.018638
-0.006340
0.014586
0.020091
0.003812
-0.015760
-0.016354
0.002729
0.019837
0.015650
-0.004798
-0.017850
-0.008178
0.013767
0.023674
0.011095
-0.008627
-0.011816
0.006587
0.027289
0.028665
0.011433
-0.002127
0.006478
0.030919
0.047297
0.041409
0.024972
0.022297
0.042620
0.069593
0.079931
0.069946
0.059748
0.070314
0.099556
0.124663
0.128039
0.117287
0.116465
0.138579
0.170658
0.188415
0.183800
0.174033
0.181850
0.209447
0.235843
0.240644
0.227153
0.218480
0.231102
0.255986
0.268806
0.257601
0.236363
0.229076
0.242390
0.258067
0.253810
0.228739
0.204473
0.200603
0.212478
0.216634
0.197665
0.165915
0.145836
0.148265
0.158212
0.152075
0.124655
0.095196
0.085557
0.095395
0.102631
0.088672
0.059647
0.039458
0.042569
0.057536
0.060046
0.040619
0.015388
0.007697
0.021470
0.036710
0.032246
0.009823
-0.007927
-0.003311
0.016226
0.026546
0.014292
-0.007929
-0.015938
-0.001567
0.018011
0.019826
0.001265
-0.016968
-0.014461
0.005636
0.020184
0.012417
-0.008967
-0.019721
-0.007685
0.013351
0.019360
0.003450
-0.016285
-0.017383
0.001386
0.018621
0.014670
-0.005973
-0.019792
-0.011045
0.010297
0.019912
0.006843
-0.014020
-0.018905
-0.002246
0.016974
0.016853
-0.002471
-0.018979
-0.013861
0.007052
0.019929
0.010097
-0.011240
-0.019769
-0.005772
0.014802
0.018510
0.001125
-0.017541
-0.016220
0.003584
0.019304
0.013027
-0.008094
-0.019992
-0.009110
0.012153
0.019568
0.004685
-0.015536
-0.018054
0.000000
0.000000
0.018054
0.015536
-0.004685
-0.019568
-0.012153
0.009110
0.019992
0.008094
-0.013027
-0.019304
-0.003584
0.016220
0.017542
-0.001124
-0.018507
-0.014799
0.005778
0.019780
0.011256
-0.010071
-0.019887
-0.006987
0.013960
0.019130
0.002697
-0.016519
-0.016487
0.002946
0.019898
0.015413
-0.004916
-0.017279
-0.006744
0.015776
0.026012
0.014048
-0.004322
-0.005528
0.014967
0.037551
0.040839
0.026065
0.015666
0.027688
0.055161
0.073946
0.070119
0.055679
0.054690
0.075663
0.101637
0.109292
0.095314
0.079984
0.083913
0.104440
0.118599
0.109270
0.084725
0.069290
0.075757
0.090977
0.091040
0.068732
0.041974
0.033610
0.045576
0.056864
0.047607
0.021828
0.002938
0.007105
0.024855
0.031858
0.016630
-0.006424
-0.013474
0.001524
0.019882
0.019415
-0.000331
-0.017615
-0.013317
0.007237
0.020314
0.010791
-0.010626
-0.019610
-0.005931
0.014903
0.019353
0.002729
-0.015366
-0.013221
0.008496
0.027893
0.027430
0.014865
0.015815
0.046480
0.097575
0.147607
0.189960
0.242329
0.327018
0.443834
0.565988
0.663621
0.728683
0.773928
0.808707
0.820825
0.786540
0.698152
0.577742
0.460561
0.365504
0.284503
0.201234
0.116592
0.051358
0.023159
0.024647
0.028699
0.015660
-0.007694
-0.018638
-0.006340
0.014586
0.020091
0.003812
-0.015760
-0.016354
0.002729
0.019837
0.015650
-0.004798
-0.017850
-0.008178
0.013767
0.023674
0.011095
-0.008627
-0.011816
0.006587
0.027289
0.028665
0.011433
-0.002127
0.006478
0.030919
0.047297
0.041409
0.024972
0.022297
0.042620
0.069593
0.079931
0.069946
0.059748
0.070314
0.099556
0.124663
0.128039
0.117287
0.116465
0.138579
0.170658
0.188415
0.183800
0.174033
0.181850
0.209447
0.235843
0.240644
0.227153
0.218480
0.231102
0.255986
0.268806
0.257601
0.236363
0.229076
0.242390
0.258067
0.253810
0.228739
0.204473
0.200603
0.212478
0.216634
0.197665
0.165915
0.145836
0.148265
0.158212
0.152075
0.124655
0.095196
0.085557
0.095395
0.102631
0.088672
0.059647
0.039458
0.042569
0.057536
0.060046
0.040619
0.015388
0.007697
0.021470
0.036710
0.032246
0.009823
-0.007927
-0.003311
0.016226
0.026546
0.014292
-0.007929
-0.015938
-0.001567
0.018011
0.019826
0.001265
-0.016968
-0.014461
0.005636
0.020184
0.012417
-0.008967
-0.019721
-0.007685
0.013351
0.019360
0.003450
-0.016285
-0.017383
0.001386
0.018621
0.014670
-0.005973
-0.019792
-0.011045
0.010297
0.019912
0.006843
-0.014020
-0.018905
-0.002246
0.016974
0.016853
-0.002471
-0.018979
-0.013861
0.007052
0.019929
0.010097
-0.011240
-0.019769
-0.005772
0.014802
0.018510
0.001125
-0.017541
-0.016220
0.003584
0.019304
0.013027
-0.008094
-0.019992
-0.009110
0.012153
0.019568
0.004685
-0.015536
-0.018054
0.000000
0.000000
0.018054
0.015536
-0.004685
-0.019568
-0.012153
0.009110
0.019992
0.008094
-0.013027
-0.019304
-0.003584
0.016220
0.017542
-0.001124
-0.018507
-0.014799
0.005778
0.019780
0.011256
-0.010071
-0.019887
-0.006987
0.013960
0.019130
0.002697
-0.016519
-0.016487
0.002946
0.019898
0.015413
-0.004916
-0.017279
-0.006744
0.015776
0.026012
0.014048
-0.004322
-0.005528
0.014967
0.037551
0.040839
0.026065
0.015666
0.027688
0.055161
0.073946
0.070119
0.055679
0.054690
0.075663
0.101637
0.109292
0.095314
0.079984
0.083913
0.104440
0.118599
0.109270
0.084725
0.069290
0.075757
0.090977
0.091040
0.068732
0.041974
0.033610
0.045576
0.056864
0.047607
0.021828
0.002938
0.007105
0.024855
0.031858
0.016630
-0.006424
-0.013474
0.001524
0.019882
0.019415
-0.000331
-0.017615
-0.013317
0.007237
0.020314
0.010791
-0.010626
-0.019610
-0.005931
0.014903
0.019353
0.002729
-0.015366
-0.013221
0.008496
0.027893
0.027430
0.014865
0.015815
0.046480
0.097575
0.147607
0.189960
0.242329
0.327018
0.443834
0.565988
0.663621
0.728683
0.773928
0.808707
0.820825
0.786540
0.698152
0.577742
0.460561
0.365504
0.284503
0.201234
0.116592
0.051358
0.023159
0.024647
0.028699
0.015660
-0.007694
-0.018638
-0.006340
0.014586
0.020091
0.003812
-0.015760
-0.016354
0.002729
0.019837
0.015650
-0.004798
-0.017850
-0.008178
0.013767
0.023674
0.011095
-0.008627
-0.011816
0.006587
0.027289
0.028665
0.011433
-0.002127
0.006478
0.030919
0.047297
0.041409
0.024972
0.022297
0.042620
0.069593
0.079931
0.069946
0.059748
0.070314
0.099556
0.124663
0.128039
0.117287
0.116465
0.138579
0.170658
0.188415
0.183800
0.174033
0.181850
0.209447
0.235843
0.240644
0.227153
0.218480
0.231102
0.255986
0.268806
0.257601
0.236363
0.229076
0.242390
0.258067
0.253810
0.228739
0.204473
0.200603
0.212478
0.216634
0.197665
0.165915
0.145836
0.148265
0.158212
0.152075
0.124655
0.095196
0.085557
0.095395
0.102631
0.088672
0.059647
0.039458
0.042569
0.057536
0.060046
0.040619
0.015388
0.007697
0.021470
0.036710
0.032246
0.009823
-0.007927
-0.003311
0.016226
0.026546
0.014292
-0.007929
-0.015938
-0.001567
0.018011
0.019826
0.001265
-0.016968
-0.014461
0.005636
0.020184
0.012417
-0.008967
-0.019721
-0.007685
0.013351
0.019360
0.003450
-0.016285
-0.017383
0.001386
0.018621
0.014670
-0.005973
-0.019792
-0.011045
0.010297
0.019912
0.006843
-0.014020
-0.018905
-0.002246
0.016974
0.016853
-0.002471
-0.018979
-0.013861
0.007052
0.019929
0.010097
-0.011240
-0.019769
-0.005772
0.014802
0.018510
0.001125
-0.017541
-0.016220
0.003584
0.019304
0.013027
-0.008094
-0.019992
-0.009110
0.012153
0.019568
0.004685
-0.015536
-0.018054
0.000000
0.000000
0.018054
0.015536
-0.004685
-0.019568
-0.012153
0.009110
0.019992
0.008094
-0.013027
-0.019304
-0.003584
0.016220
0.017542
-0.001124
-0.018507
-0.014799
0.005778
0.019780
0.011256
-0.010071
-0.019887
-0.006987
0.013960
0.019130
0.002697
-0.016519
-0.016487
0.002946
0.019898
0.015413
-0.004916
-0.017279
-0.006744
0.015776
0.026012
0.014048
-0.004322
-0.005528
0.014967
0.037551
0.040839
0.026065
0.015666
0.027688
0.055161
0.073946
0.070119
0.055679
0.054690
0.075663
0.101637
0.109292
0.095314
0.079984
0.083913
0.104440
0.118599
0.109270
0.084725
0.069290
0.075757
0.090977
0.091040
0.068732
0.041974
0.033610
0.045576
0.056864
0.047607
0.021828
0.002938
0.007105
0.024855
0.031858
0.016630
-0.006424
-0.013474
0.001524
0.019882
0.019415
-0.000331
-0.017615
-0.013317
0.007237
0.020314
0.010791
-0.010626
-0.019610
-0.005931
0.014903
0.019353
0.002729
-0.015366
-0.013221
0.008496
0.027893
0.027430
0.014865
0.015815
0.046480
0.097575
0.147607
0.189960
0.242329
0.327018
0.443834
0.565988
0.663621
0.728683
0.773928
0.808707
0.820825
0.786540
0.698152
0.577742
0.460561
0.365504
0.284503
0.201234
0.116592
0.051358
0.023159
0.024647
0.028699
0.015660
-0.007694
-0.018638
-0.006340
0.014586
0.020091
0.003812
-0.015760
-0.016354
0.002729
0.019837
0.015650
-0.004798
-0.017850
-0.008178
0.013767
0.023674
0.011095
-0.008627
-0.011816
0.006587
0.027289
0.028665
0.011433
-0.002127
0.006478
0.030919
0.047297
0.041409
0.024972
0.022297
0.042620
0.069593
0.079931
0.069946
0.059748
0.070314
0.099556
0.124663
0.128039
0.117287
0.116465
0.138579
0.170658
0.188415
0.183800
0.174033
0.181850
0.209447
0.235843
0.240644
0.227153
0.218480
0.231102
0.255986
0.268806
0.257601
0.236363
0.229076
0.242390
0.258067
0.253810
0.228739
0.204473
0.200603
0.212478
0.216634
0.197665
0.165915
0.145836
0.148265
0.158212
0.152075
0.124655
0.095196
0.085557
0.095395
0.102631
0.088672
0.059647
0.039458
0.042569
0.057536
0.060046
0.040619
0.015388
0.007697
0.021470
0.036710
0.032246
0.009823
-0.007927
-0.003311
0.016226
0.026546
0.014292
-0.007929
-0.015938
-0.001567
0.018011
0.019826
0.001265
-0.016968
-0.014461
0.005636
0.020184
0.012417
-0.008967
-0.019721
-0.007685
0.013351
0.019360
0.003450
-0.016285
-0.017383
0.001386
0.018621
0.014670
-0.005973
-0.019792
-0.011045
0.010297
0.019912
0.006843
-0.014020
-0.018905
-0.002246
0.016974
0.016853
-0.002471
-0.018979
-0.013861
0.007052
0.019929
0.010097
-0.011240
-0.019769
-0.005772
0.014802
0.018510
0.001125
-0.017541
-0.016220
0.003584
0.019304
0.013027
-0.008094
-0.019992
-0.009110
0.012153
0.019568
0.004685
-0.015536
-0.018054
0.000000
0.000000
0.018054
0.015536
-0.004685
-0.019568
-0.012153
0.009110
0.019992
0.008094
-0.013027
-0.019304
-0.003584
0.016220
0.017542
-0.001124
-0.018507
-0.014799
0.005778
0.019780
0.011256
-0.010071
-0.019887
-0.006987
0.013960
0.019130
0.002697
-0.016519
-0.016487
0.002946
0.019898
0.015413
-0.004916
-0.017279
-0.006744
0.015776
0.026012
0.014048
-0.004322
-0.005528
0.014967
0.037551
0.040839
0.026065
0.015666
0.027688
0.055161
0.073946
0.070119
0.055679
0.054690
0.075663
0.101637
0.109292
0.095314
0.079984
0.083913
0.104440
0.118599
0.109270
0.084725
0.069290
0.075757
0.090977
0.091040
0.068732
0.041974
0.033610
0.045576
0.056864
0.047607
0.021828
0.002938
0.007105
0.024855
0.031858
0.016630
-0.006424
-0.013474
0.001524
0.019882
0.019415
-0.000331
-0.017615
-0.013317
0.007237
0.020314
0.010791
-0.010626
-0.019610
-0.005931
0.014903
0.019353
0.002729
-0.015366
-0.013221
0.008496
0.027893
0.027430
0.014865
0.015815
0.046480
0.097575
0.147607
0.189960
0.242329
0.327018
0.443834
0.565988
0.663621
0.728683
0.773928
0.808707
0.820825
0.786540
0.698152
0.577742
0.460561
0.365504
0.284503
0.201234
0.116592
0.051358
0.023159
0.024647
0.028699
0.015660
-0.007694
-0.018638
-0.006340
0.014586
0.020091
0.003812
-0.015760
-0.016354
0.002729
0.019837
0.015650
-0.004798
-0.017850
-0.008178
0.013767
0.023674
0.011095
-0.008627
-0.011816
0.006587
0.027289
0.028665
0.011433
-0.002127
0.006478
0.030919
0.047297
0.041409
0.024972
0.022297
0.042620
0.069593
0.079931
0.069946
0.059748
0.070314
0.099556
0.124663
0.128039
0.117287
0.116465
0.138579
0.170658
0.188415
0.183800
0.174033
0.181850
0.209447
0.235843
0.240644
0.227153
0.218480
0.231102
0.255986
0.268806
0.257601
0.236363
0.229076
0.242390
0.258067
0.253810
0.228739
0.204473
0.200603
0.212478
0.216634
0.197665
0.165915
0.145836
0.148265
0.158212
0.152075
0.124655
0.095196
0.085557
0.095395
0.102631
0.088672
0.059647
0.039458
0.042569
0.057536
0.060046
0.040619
0.015388
0.007697
0.021470
0.036710
0.032246
0.009823
-0.007927
-0.003311
0.016226
0.026546
0.014292
-0.007929
-0.015938
-0.001567
0.018011
0.019826
0.001265
-0.016968
-0.014461
0.005636
0.020184
0.012417
-0.008967
-0.019721
-0.007685
0.013351
0.019360
0.003450
-0.016285
-0.017383
0.001386
0.018621
0.014670
-0.005973
-0.019792
-0.011045
0.010297
0.019912
0.006843
-0.014020
-0.018905
-0.002246
0.016974
0.016853
-0.002471
-0.018979
-0.013861
0.007052
0.019929
0.010097
-0.011240
-0.019769
-0.005772
0.014802
0.018510
0.001125
-0.017541
-0.016220
0.003584
0.019304
0.013027
-0.008094
-0.019992
-0.009110
0.012153
0.019568
0.004685
-0.015536
-0.018054
0.000000
